# Output from CTFFind version 4.1.10, run on 2022-12-03 19:06:05
# Input file: /home/limzh/Projects/libCTF/assets/20210929_21_ali.mrc ; Number of micrographs: 41
# Pixel size: 3.050 Angstroms ; acceleration voltage: 300.0 keV ; spherical aberration: 2.70 mm ; amplitude contrast: 0.07
# Box size: 512 pixels ; min. res.: 30.0 Angstroms ; max. res.: 5.0 Angstroms ; min. def.: 5000.0 um; max. def. 50000.0 um; num. frames averaged: 1
# 6 lines per micrograph: #1 - spatial frequency (1/Angstroms); #2 - 1D rotational average of spectrum (assuming no astigmatism); #3 - 1D rotational average of spectrum; #4 - CTF fit; #5 - cross-correlation between spectrum and CTF fit; #6 - 2sigma of expected cross correlation of noise
0.000000 0.000640 0.001281 0.001921 0.002561 0.003202 0.003842 0.004483 0.005123 0.005763 0.006404 0.007044 0.007684 0.008325 0.008965 0.009606 0.010246 0.010886 0.011527 0.012167 0.012807 0.013448 0.014088 0.014728 0.015369 0.016009 0.016650 0.017290 0.017930 0.018571 0.019211 0.019851 0.020492 0.021132 0.021773 0.022413 0.023053 0.023694 0.024334 0.024974 0.025615 0.026255 0.026895 0.027536 0.028176 0.028817 0.029457 0.030097 0.030738 0.031378 0.032018 0.032659 0.033299 0.033940 0.034580 0.035220 0.035861 0.036501 0.037141 0.037782 0.038422 0.039063 0.039703 0.040343 0.040984 0.041624 0.042264 0.042905 0.043545 0.044185 0.044826 0.045466 0.046107 0.046747 0.047387 0.048028 0.048668 0.049308 0.049949 0.050589 0.051230 0.051870 0.052510 0.053151 0.053791 0.054431 0.055072 0.055712 0.056352 0.056993 0.057633 0.058274 0.058914 0.059554 0.060195 0.060835 0.061475 0.062116 0.062756 0.063397 0.064037 0.064677 0.065318 0.065958 0.066598 0.067239 0.067879 0.068519 0.069160 0.069800 0.070441 0.071081 0.071721 0.072362 0.073002 0.073642 0.074283 0.074923 0.075564 0.076204 0.076844 0.077485 0.078125 0.078765 0.079406 0.080046 0.080686 0.081327 0.081967 0.082608 0.083248 0.083888 0.084529 0.085169 0.085809 0.086450 0.087090 0.087731 0.088371 0.089011 0.089652 0.090292 0.090932 0.091573 0.092213 0.092853 0.093494 0.094134 0.094775 0.095415 0.096055 0.096696 0.097336 0.097976 0.098617 0.099257 0.099898 0.100538 0.101178 0.101819 0.102459 0.103099 0.103740 0.104380 0.105020 0.105661 0.106301 0.106942 0.107582 0.108222 0.108863 0.109503 0.110143 0.110784 0.111424 0.112065 0.112705 0.113345 0.113986 0.114626 0.115266 0.115907 0.116547 0.117188 0.117828 0.118468 0.119109 0.119749 0.120389 0.121030 0.121670 0.122310 0.122951 0.123591 0.124232 0.124872 0.125512 0.126153 0.126793 0.127433 0.128074 0.128714 0.129355 0.129995 0.130635 0.131276 0.131916 0.132556 0.133197 0.133837 0.134477 0.135118 0.135758 0.136399 0.137039 0.137679 0.138320 0.138960 0.139600 0.140241 0.140881 0.141522 0.142162 0.142802 0.143443 0.144083 0.144723 0.145364 0.146004 0.146644 0.147285 0.147925 0.148566 0.149206 0.149846 0.150487 0.151127 0.151767 0.152408 0.153048 0.153689 0.154329 0.154969 0.155610 0.156250 0.156890 0.157531 0.158171 0.158811 0.159452 0.160092 0.160733 0.161373 0.162013 0.162654 0.163294 0.163934 0.164575 0.165215 0.165856 0.166496 0.167136 0.167777 0.168417 0.169057 0.169698 0.170338 0.170978 0.171619 0.172259 0.172900 0.173540 0.174180 0.174821 0.175461 0.176101 0.176742 0.177382 0.178023 0.178663 0.179303 0.179944 0.180584 0.181224 0.181865 0.182505 0.183145 0.183786 0.184426 0.185067 0.185707 0.186347 0.186988 0.187628 0.188268 0.188909 0.189549 0.190190 0.190830 0.191470 0.192111 0.192751 0.193391 0.194032 0.194672 0.195313 0.195953 0.196593 0.197234 0.197874 0.198514 0.199155 0.199795 0.200435 0.201076 0.201716 0.202357 0.202997 0.203637 0.204278 0.204918 0.205558 0.206199 0.206839 0.207480 0.208120 0.208760 0.209401 0.210041 0.210681 0.211322 0.211962 0.212602 0.213243 0.213883 0.214524 0.215164 0.215804 0.216445 0.217085 0.217725 0.218366 0.219006 0.219647 0.220287 0.220927 0.221568 0.222208 0.222848 0.223489 0.224129 0.224769 0.225410 0.226050 0.226691 0.227331 0.227971 0.228612 0.229252 0.229892 0.230533 0.231173 0.231814
       0.00404        0.02904        0.04994        0.05740        0.06055        0.06326        0.06426        0.06543        0.06622        0.06674        0.06732        0.06756        0.06802        0.06826        0.06846        0.06870        0.06883        0.06906        0.06915        0.06929        0.06940        0.06950        0.06961        0.06966        0.06977        0.06983        0.06990        0.06996        0.07000        0.07009        0.07011        0.07017        0.07020        0.07024        0.07029        0.07031        0.07036        0.07038        0.07042        0.07045        0.07046        0.07051        0.07052        0.07055        0.07057        0.07059        0.07062        0.07063        0.07066        0.07067        0.07069        0.07344       -0.13753       -0.24655       -0.13767       -0.29037       -0.17200        0.00333       -0.18231        0.16656        0.04186        0.22941        0.15834        0.06366        0.08800        0.24409        0.11057        0.34671        0.41923        0.29341        0.34937        0.46051        0.50185        0.47740        0.28508       -0.03166       -0.01326       -0.05809       -0.02232       -0.00430       -0.11364       -0.01194        0.01681       -0.10923        0.03193        0.07376        0.10040        0.29169        0.30315        0.33679        0.00297        0.32371        0.08895        0.17545        0.19806        0.25494        0.20473        0.32897        0.26648        0.21984        0.05096        0.29075        0.13199        0.08945        0.20049        0.11264        0.06934       -0.02659        0.05923        0.23139        0.10318       -0.05746       -0.03172       -0.13771       -0.01779        0.11926        0.00297       -0.02188        0.02483        0.00197       -0.11508       -0.12436       -0.11540       -0.01469       -0.15069       -0.08824       -0.10234       -0.20147       -0.13695       -0.21695       -0.30299       -0.19456       -0.17997       -0.23923       -0.26907       -0.22181       -0.13666        0.01941       -0.13079       -0.15936       -0.19472       -0.18440       -0.11692       -0.16233       -0.15212       -0.08733       -0.20732       -0.11248       -0.18563       -0.17712       -0.09411        0.01830       -0.07165       -0.17769       -0.09309       -0.07381       -0.05898       -0.06114       -0.04685        0.14244        0.06715        0.05673        0.11493        0.09613       -0.04154        0.02852        0.06184        0.23428        0.10139        0.15439        0.15112        0.21879        0.10302        0.20082        0.21865        0.26770        0.24620        0.21640        0.19298        0.29814        0.24724        0.27563        0.25889        0.28358        0.14737        0.26058        0.27405        0.25267        0.17412        0.24303        0.19648        0.22601        0.11215        0.11706        0.22319        0.25640        0.21066        0.11034        0.03697        0.02935        0.07205        0.09251        0.07340        0.04733        0.06358        0.13159       -0.01122       -0.00725        0.07824        0.10874        0.07045        0.00984        0.02025        0.11781        0.07371        0.03919       -0.02645        0.08050        0.12064        0.08378        0.08779        0.01835        0.07079        0.03704        0.08600       -0.01726       -0.02449        0.04426       -0.00169        0.09595        0.10320        0.09214        0.04617        0.04648        0.03669        0.08404        0.07478        0.06531        0.09747        0.06913        0.02754        0.02026        0.02075        0.05890        0.05163        0.02330        0.01298        0.02167       -0.02085        0.00465        0.01301       -0.00146        0.05791        0.04815        0.00227       -0.02703        0.01275       -0.00334        0.01345       -0.02138        0.05925        0.01336       -0.03018       -0.02175        0.00235        0.00433        0.04182        0.04715       -0.01954       -0.02763        0.00698       -0.04681       -0.00895        0.03131        0.01074       -0.03481        0.02560        0.00150        0.00796        0.00697       -0.00988        0.00060       -0.04694       -0.01389       -0.01202       -0.00912        0.05381        0.01727        0.07873       -0.04207       -0.04073       -0.01954       -0.06550        0.04578        0.04815        0.02658        0.00120        0.04582        0.03951       -0.00008        0.00607       -0.00863        0.00674        0.02635       -0.08125       -0.02372       -0.06156       -0.06712       -0.05863       -0.12030       -0.06531       -0.03701       -0.01734       -0.02929       -0.09919       -0.14849       -0.11920       -0.12211       -0.06351       -0.00810       -0.00184       -0.03615       -0.07778       -0.04106       -0.09705       -0.00270        0.01319       -0.06206       -0.05640       -0.15177       -0.09210       -0.06761       -0.09683       -0.09254       -0.09440       -0.16950       -0.15269       -0.16145       -0.11606       -0.07971       -0.19624       -0.22513       -0.12885       -0.05286       -0.08162        0.06364       -0.01481       -0.18823       -0.12143       -0.10716       -0.23150       -0.10559       -0.03493       -0.01466       -0.08969       -0.25431       -0.16345       -0.21924       -0.03232       -0.19422       -0.47547        0.18766        1.11075
0.006853 0.059383 0.080645 0.098094 0.104108 0.111074 0.114864 0.119828 0.123177 0.125704 0.129649 0.131430 0.135061 0.137262 0.139863 0.142517 0.145100 0.147387 0.149829 0.152439 0.154871 0.157072 0.159327 0.161861 0.164225 0.166573 0.167562 0.171044 0.174716 0.175716 0.177834 0.180271 0.182586 0.184765 0.187091 0.189312 0.191673 0.193789 0.196124 0.198341 0.200587 0.202845 0.205150 0.207301 0.209577 0.211824 0.213955 0.216379 0.218472 0.220781 0.273220 0.528988 -0.037152 0.132370 -0.514823 -0.561824 0.184050 0.098342 0.651835 0.056555 0.608718 0.482415 0.696759 0.124224 0.391002 0.708185 0.215615 0.830538 1.260239 0.622305 0.750019 0.350096 0.724714 0.634384 0.658804 0.553087 0.307583 -0.084840 0.092133 0.189489 0.003920 -0.416393 0.441788 0.584284 0.326950 0.471453 0.978363 0.635058 0.751507 0.348410 0.527854 0.252681 0.692948 0.462297 0.465924 0.803750 0.552521 0.488906 0.565793 0.769445 0.462179 0.614514 0.387989 0.503359 -0.072716 0.524922 0.309987 0.170312 0.199723 0.547438 0.033017 0.316220 0.022167 0.243916 0.173477 0.408995 0.221095 0.100104 0.139610 0.382546 -0.335619 -0.166341 -0.009342 -0.078178 -0.285498 -0.198052 0.142356 0.009861 -0.139562 -0.092383 -0.310954 -0.176503 -0.241115 0.135115 0.177089 -0.022424 -0.124229 -0.211662 -0.056926 0.139211 -0.116605 -0.137568 -0.070931 -0.028042 0.109037 0.000000 0.255479 0.128377 0.294699 0.002260 0.132157 0.133350 0.396259 0.123755 0.101856 0.134868 0.387700 0.364554 0.255527 0.290440 0.481948 0.523253 0.647098 0.336384 0.609156 0.546166 0.540503 0.387562 0.649750 0.542423 0.401794 0.448596 0.507482 0.639949 0.561028 0.486174 0.467538 0.522925 0.424661 0.950000 0.660296 0.651051 0.566458 0.829075 0.359666 0.549291 0.475516 0.418391 0.552082 0.417133 0.487346 0.459988 0.408460 0.388719 0.365363 0.298364 0.258035 0.336600 0.162191 0.286619 0.183250 0.400247 0.270502 0.084606 0.137692 0.097415 0.168024 0.000000 0.055769 0.179746 0.083216 0.147595 0.124095 0.234319 0.194464 0.114073 0.100731 0.111624 0.064266 0.277462 0.118626 0.209821 0.163634 0.300360 0.118658 0.261329 0.212134 0.106619 0.222228 0.140675 0.144925 0.123791 0.153364 0.135854 0.025766 0.176512 0.029441 0.025013 0.103194 0.039027 0.104261 -0.000680 0.204795 0.062145 0.227946 0.045547 -0.014837 0.064980 0.096662 0.002470 -0.028455 -0.007741 -0.048164 0.032111 0.132360 0.000000 0.014742 0.023469 0.060192 0.079974 0.120802 0.004597 -0.029002 -0.025446 0.190145 0.046943 0.069844 0.091254 0.098984 0.031686 0.128653 0.097172 0.035691 0.106735 -0.085410 0.018894 0.175227 0.085067 -0.005022 0.023529 0.265307 0.029781 0.198911 0.185960 0.140147 0.036979 0.164256 0.109677 0.172338 0.198418 0.288112 0.140921 0.202699 0.247642 0.129862 -0.026893 -0.000000 0.143643 0.123445 -0.002883 -0.004517 0.146287 0.116913 0.193855 0.057834 0.079948 -0.112534 0.035117 0.108620 0.109117 0.040698 -0.057756 0.119434 0.244199 0.195496 0.256184 0.165568 0.060258 -0.018051 0.050664 0.093936 0.165731 -0.033431 -0.011750 0.032065 -0.027831 0.012139 -0.266667 -0.078285 0.074950 0.110037 -0.048556 0.268060 -0.000000 -0.134699 -0.068152 -0.136796 -0.104025 -0.097175 -0.323307 -0.208480 -0.166153 -0.259633 -0.063385 -0.056465 -0.114595 -0.144977 -0.169809 -0.388817 -0.113891 -0.458537 -0.252502 0.007030 -0.444458 -0.529996 -0.085451 -0.063474 -0.006499 -0.192408 -0.085564 -0.353522 -0.151906 -0.225954
0.070000 0.070147 0.070587 0.071321 0.072348 0.073669 0.075282 0.077189 0.079390 0.081882 0.084668 0.087746 0.091116 0.094778 0.098731 0.102975 0.107510 0.112335 0.117449 0.122852 0.128542 0.134520 0.140784 0.147334 0.154167 0.161282 0.168679 0.176356 0.184311 0.192542 0.201047 0.209824 0.218871 0.228185 0.237763 0.247603 0.257700 0.268053 0.278656 0.289506 0.300598 0.311929 0.323493 0.335285 0.347299 0.359531 0.371972 0.384618 0.397460 0.410492 0.423706 0.437093 0.450646 0.464355 0.478209 0.492201 0.506318 0.520551 0.534887 0.549315 0.563823 0.578396 0.593022 0.607687 0.622375 0.637073 0.651763 0.666431 0.681058 0.695627 0.710121 0.724521 0.738807 0.752960 0.766960 0.780785 0.794415 0.807828 0.821000 0.833910 0.846533 0.858846 0.870824 0.882442 0.893676 0.904500 0.914887 0.924812 0.934247 0.943166 0.951542 0.959347 0.966555 0.973137 0.979066 0.984314 0.988854 0.992659 0.995701 0.997954 0.999391 0.999985 0.999710 0.998542 0.996456 0.993427 0.989433 0.984450 0.978457 0.971435 0.963362 0.954222 0.943996 0.932670 0.920229 0.906661 0.891955 0.876100 0.859091 0.840922 0.821589 0.801091 0.779429 0.756607 0.732630 0.707506 0.681246 0.653865 0.625377 0.595803 0.565163 0.533484 0.500793 0.467121 0.432503 0.396976 0.360580 0.323359 0.285360 0.246635 0.207236 0.167220 0.126648 0.085582 0.044090 0.002241 0.039892 0.082234 0.124706 0.167226 0.209711 0.252074 0.294227 0.336077 0.377532 0.418497 0.458875 0.498567 0.537475 0.575498 0.612535 0.648485 0.683245 0.716715 0.748794 0.779381 0.808377 0.835685 0.861210 0.884856 0.906535 0.926158 0.943640 0.958901 0.971864 0.982458 0.990614 0.996272 0.999375 0.999873 0.997724 0.992890 0.985343 0.975061 0.962029 0.946244 0.927707 0.906431 0.882436 0.855754 0.826423 0.794494 0.760025 0.723086 0.683756 0.642124 0.598289 0.552361 0.504458 0.454709 0.403253 0.350237 0.295818 0.240161 0.183439 0.125835 0.067536 0.008739 0.050354 0.109535 0.168593 0.227309 0.285464 0.342834 0.399195 0.454321 0.507986 0.559965 0.610036 0.657979 0.703578 0.746623 0.786910 0.824241 0.858428 0.889293 0.916666 0.940391 0.960324 0.976333 0.988304 0.996137 0.999747 0.999068 0.994053 0.984673 0.970917 0.952797 0.930343 0.903607 0.872664 0.837607 0.798554 0.755642 0.709032 0.658901 0.605454 0.548911 0.489512 0.427518 0.363206 0.296872 0.228825 0.159390 0.088905 0.017719 0.053809 0.125310 0.196412 0.266737 0.335903 0.403530 0.469240 0.532658 0.593414 0.651151 0.705518 0.756180 0.802818 0.845127 0.882827 0.915657 0.943380 0.965787 0.982695 0.993952 0.999438 0.999065 0.992778 0.980559 0.962424 0.938429 0.908664 0.873258 0.832378 0.786226 0.735042 0.679103 0.618718 0.554232 0.486021 0.414490 0.340073 0.263229 0.184441 0.104210 0.023057 0.058484 0.139871 0.220554 0.299976 0.377588 0.452839 0.525190 0.594115 0.659103 0.719664 0.775334 0.825679 0.870293 0.908809 0.940899 0.966278 0.984706 0.995991 0.999993 0.996622 0.985846 0.967685 0.942217 0.909578 0.869958 0.823607 0.770828 0.711979 0.647469 0.577758 0.503353 0.424804 0.342703 0.257676 0.170382 0.081504 0.008250 0.098159 0.187489 0.275504 0.361469 0.444659 0.524361 0.599882 0.670557 0.735759 0.794892 0.847412 0.892822 0.930680 0.960607 0.982288 0.995477 0.999999 0.995754 0.982721 0.960955 0.930590 0.891840 0.844998 0.790431 0.728585 0.659975 0.585182 0.504856 0.419702
1.000000 1.000000 1.000000 1.000000 1.000000 1.000000 1.000000 1.000000 1.000000 1.000000 1.000000 1.000000 1.000000 1.000000 1.000000 1.000000 1.000000 1.000000 1.000000 1.000000 1.000000 1.000000 1.000000 1.000000 1.000000 1.000000 1.000000 1.000000 1.000000 1.000000 1.000000 1.000000 1.000000 1.000000 1.000000 1.000000 1.000000 1.000000 1.000000 1.000000 1.000000 1.000000 1.000000 1.000000 1.000000 1.000000 1.000000 1.000000 1.000000 1.000000 1.000000 1.000000 1.000000 0.279613 0.279613 0.279613 0.279613 0.279613 0.279613 0.279613 0.279613 0.279613 0.279613 0.279613 0.279613 0.279613 0.279613 0.279613 0.279613 0.279613 0.279613 0.279613 0.279613 0.279613 0.279613 0.279613 0.279613 0.279613 0.279613 0.279613 0.279613 0.279613 0.279613 0.279613 0.279613 0.279613 0.279613 0.279613 0.279613 0.279613 0.279613 0.279613 0.279613 0.279613 0.279613 0.279613 0.279613 0.279613 0.279613 0.279613 0.279613 0.279613 0.359481 0.359481 0.359481 0.359481 0.359481 0.359481 0.359481 0.359481 0.359481 0.359481 0.359481 0.359481 0.359481 0.359481 0.359481 0.359481 0.359481 0.359481 0.359481 0.359481 0.359481 0.359481 0.359481 0.359481 0.359481 0.359481 0.359481 0.359481 0.359481 0.359481 0.359481 0.359481 0.359481 0.359481 0.359481 0.359481 0.359481 0.359481 0.359481 0.359481 0.359481 0.359481 0.359481 0.359481 0.357290 0.355839 0.348622 0.346274 0.343679 0.339575 0.337473 0.336235 0.331868 0.324763 0.326083 0.331745 0.335300 0.344369 0.338277 0.319389 0.318501 0.313280 0.307504 0.298748 0.289275 0.281764 0.284090 0.288917 0.295279 0.301644 0.309849 0.317907 0.329422 0.348907 0.353932 0.362721 0.373979 0.605147 0.605834 0.608702 0.600939 0.573429 0.572194 0.561664 0.551442 0.534045 0.517877 0.504763 0.502928 0.500332 0.517587 0.523262 0.523015 0.525677 0.539679 0.550486 0.544210 0.547619 0.550794 0.540828 0.549069 0.525623 0.506074 0.513209 0.514101 0.494197 0.481952 0.482261 0.470040 0.480358 0.478088 0.471530 0.460808 0.462567 0.473869 0.478628 0.470981 0.450209 0.445369 0.424157 0.398700 0.394662 0.413315 0.424006 0.399217 0.384063 0.391344 0.397583 0.388385 0.385256 0.381214 0.388420 0.405473 0.381929 0.363997 0.365254 0.368166 0.356003 0.346783 0.344216 0.336698 0.328884 0.311949 0.300396 0.292491 0.297481 0.285568 0.263621 0.266996 0.269878 0.276052 0.281074 0.286097 0.288474 0.280311 0.282636 0.288121 0.293476 0.285629 0.281909 0.281315 0.275488 0.282303 0.280583 0.273231 0.253153 0.224091 0.227116 0.179292 0.155828 0.158956 0.128895 0.127919 0.115347 0.118623 0.120829 0.113477 0.117133 0.118089 0.118412 0.112681 0.114275 0.114915 0.119151 0.111252 0.098933 0.085566 0.083117 0.050527 0.022917 0.003903 -0.027936 -0.056847 -0.063227 -0.083044 -0.088847 -0.091029 -0.097623 -0.094548 -0.093538 -0.076933 -0.081439 -0.081439 -0.081439 -0.081439 -0.081439 -0.081439 -0.081439 -0.081439 -0.081439 -0.081439 -0.081439 -0.081439 -0.081439 -0.090148 -0.090148 -0.090148 -0.090148 -0.090148 -0.090148 -0.090148 -0.090148 -0.090148 -0.090148 -0.090148 -0.090148 -0.090148 -0.090148 -0.090148 -0.090148 -0.090148 -0.090148 -0.090148 -0.090148 -0.090148 -0.090148 -0.090148 -0.090148 -0.090148 -0.090148 -0.090148 -0.090148 -0.090148 -0.090148 -0.090148 -0.090148 -0.090148 -0.090148 -0.090148 -0.090148 -0.090148 -0.090148 -0.090148 -0.090148 -0.090148 -0.090148 -0.090148 -0.090148 -0.090148 -0.090148 -0.090148
0.000000 0.000000 0.000000 0.000000 0.000000 0.000000 0.000000 0.000000 0.000000 0.000000 0.000000 0.000000 0.000000 0.000000 0.000000 0.000000 0.000000 0.000000 0.000000 0.000000 0.000000 0.000000 0.000000 0.000000 0.000000 0.000000 0.000000 0.000000 0.000000 0.000000 0.000000 0.000000 0.000000 0.000000 0.000000 0.000000 0.000000 0.000000 0.000000 0.000000 0.000000 0.000000 0.000000 0.000000 0.000000 0.000000 0.000000 0.000000 0.000000 0.000000 0.000000 0.000000 0.000000 0.132745 0.132745 0.132745 0.132745 0.132745 0.132745 0.132745 0.132745 0.132745 0.132745 0.132745 0.132745 0.132745 0.132745 0.132745 0.132745 0.132745 0.132745 0.132745 0.132745 0.132745 0.132745 0.132745 0.132745 0.132745 0.132745 0.132745 0.132745 0.132745 0.132745 0.132745 0.132745 0.132745 0.132745 0.132745 0.132745 0.132745 0.132745 0.132745 0.132745 0.132745 0.132745 0.132745 0.132745 0.132745 0.132745 0.132745 0.132745 0.132745 0.146254 0.146254 0.146254 0.146254 0.146254 0.146254 0.146254 0.146254 0.146254 0.146254 0.146254 0.146254 0.146254 0.146254 0.146254 0.146254 0.146254 0.146254 0.146254 0.146254 0.146254 0.146254 0.146254 0.146254 0.146254 0.146254 0.146254 0.146254 0.146254 0.146254 0.146254 0.146254 0.146254 0.146254 0.146254 0.146254 0.146254 0.146254 0.146254 0.146254 0.146254 0.146254 0.146254 0.146254 0.146254 0.146254 0.146254 0.146254 0.146254 0.146254 0.146254 0.146254 0.146254 0.146254 0.146254 0.146254 0.146254 0.146254 0.146254 0.146254 0.146254 0.146254 0.146254 0.146254 0.146254 0.146254 0.146254 0.146254 0.146254 0.146254 0.146254 0.146254 0.146254 0.146254 0.146254 0.146254 0.146254 0.167248 0.167248 0.167248 0.167248 0.167248 0.167248 0.167248 0.167248 0.167248 0.167248 0.167248 0.167248 0.167248 0.167248 0.167248 0.167248 0.167248 0.167248 0.167248 0.167248 0.167248 0.167248 0.167248 0.167248 0.167248 0.167248 0.167248 0.167248 0.167248 0.167248 0.167248 0.167248 0.167248 0.167248 0.167248 0.167248 0.167248 0.167248 0.167248 0.167248 0.167248 0.167248 0.167248 0.167248 0.167248 0.167248 0.167248 0.167248 0.167248 0.167248 0.167248 0.167248 0.167248 0.167248 0.178885 0.178885 0.178885 0.178885 0.178885 0.178885 0.178885 0.178885 0.178885 0.178885 0.178885 0.178885 0.178885 0.178885 0.178885 0.178885 0.178885 0.178885 0.178885 0.178885 0.178885 0.178885 0.178885 0.178885 0.178885 0.178885 0.178885 0.178885 0.178885 0.178885 0.178885 0.178885 0.178885 0.178885 0.178885 0.178885 0.178885 0.178885 0.178885 0.178885 0.178885 0.178885 0.178885 0.178885 0.181818 0.181818 0.181818 0.181818 0.181818 0.181818 0.181818 0.181818 0.181818 0.181818 0.181818 0.181818 0.181818 0.181818 0.181818 0.181818 0.181818 0.181818 0.181818 0.181818 0.181818 0.181818 0.181818 0.181818 0.181818 0.181818 0.181818 0.181818 0.181818 0.181818 0.181818 0.181818 0.181818 0.181818 0.181818 0.181818 0.181818 0.181818 0.181818 0.186501 0.186501 0.186501 0.186501 0.186501 0.186501 0.186501 0.186501 0.186501 0.186501 0.186501 0.186501 0.186501 0.186501 0.186501 0.186501 0.186501 0.186501 0.186501 0.186501 0.186501 0.186501 0.186501 0.186501 0.186501 0.186501 0.186501 0.186501 0.186501 0.186501 0.186501 0.186501 0.186501 0.186501 0.186501 0.186501 0.186501 0.186501 0.186501 0.186501 0.186501 0.186501 0.186501 0.186501 0.186501 0.186501 0.186501
0.000000 0.000640 0.001281 0.001921 0.002561 0.003202 0.003842 0.004483 0.005123 0.005763 0.006404 0.007044 0.007684 0.008325 0.008965 0.009606 0.010246 0.010886 0.011527 0.012167 0.012807 0.013448 0.014088 0.014728 0.015369 0.016009 0.016650 0.017290 0.017930 0.018571 0.019211 0.019851 0.020492 0.021132 0.021773 0.022413 0.023053 0.023694 0.024334 0.024974 0.025615 0.026255 0.026895 0.027536 0.028176 0.028817 0.029457 0.030097 0.030738 0.031378 0.032018 0.032659 0.033299 0.033940 0.034580 0.035220 0.035861 0.036501 0.037141 0.037782 0.038422 0.039063 0.039703 0.040343 0.040984 0.041624 0.042264 0.042905 0.043545 0.044185 0.044826 0.045466 0.046107 0.046747 0.047387 0.048028 0.048668 0.049308 0.049949 0.050589 0.051230 0.051870 0.052510 0.053151 0.053791 0.054431 0.055072 0.055712 0.056352 0.056993 0.057633 0.058274 0.058914 0.059554 0.060195 0.060835 0.061475 0.062116 0.062756 0.063397 0.064037 0.064677 0.065318 0.065958 0.066598 0.067239 0.067879 0.068519 0.069160 0.069800 0.070441 0.071081 0.071721 0.072362 0.073002 0.073642 0.074283 0.074923 0.075564 0.076204 0.076844 0.077485 0.078125 0.078765 0.079406 0.080046 0.080686 0.081327 0.081967 0.082608 0.083248 0.083888 0.084529 0.085169 0.085809 0.086450 0.087090 0.087731 0.088371 0.089011 0.089652 0.090292 0.090932 0.091573 0.092213 0.092853 0.093494 0.094134 0.094775 0.095415 0.096055 0.096696 0.097336 0.097976 0.098617 0.099257 0.099898 0.100538 0.101178 0.101819 0.102459 0.103099 0.103740 0.104380 0.105020 0.105661 0.106301 0.106942 0.107582 0.108222 0.108863 0.109503 0.110143 0.110784 0.111424 0.112065 0.112705 0.113345 0.113986 0.114626 0.115266 0.115907 0.116547 0.117188 0.117828 0.118468 0.119109 0.119749 0.120389 0.121030 0.121670 0.122310 0.122951 0.123591 0.124232 0.124872 0.125512 0.126153 0.126793 0.127433 0.128074 0.128714 0.129355 0.129995 0.130635 0.131276 0.131916 0.132556 0.133197 0.133837 0.134477 0.135118 0.135758 0.136399 0.137039 0.137679 0.138320 0.138960 0.139600 0.140241 0.140881 0.141522 0.142162 0.142802 0.143443 0.144083 0.144723 0.145364 0.146004 0.146644 0.147285 0.147925 0.148566 0.149206 0.149846 0.150487 0.151127 0.151767 0.152408 0.153048 0.153689 0.154329 0.154969 0.155610 0.156250 0.156890 0.157531 0.158171 0.158811 0.159452 0.160092 0.160733 0.161373 0.162013 0.162654 0.163294 0.163934 0.164575 0.165215 0.165856 0.166496 0.167136 0.167777 0.168417 0.169057 0.169698 0.170338 0.170978 0.171619 0.172259 0.172900 0.173540 0.174180 0.174821 0.175461 0.176101 0.176742 0.177382 0.178023 0.178663 0.179303 0.179944 0.180584 0.181224 0.181865 0.182505 0.183145 0.183786 0.184426 0.185067 0.185707 0.186347 0.186988 0.187628 0.188268 0.188909 0.189549 0.190190 0.190830 0.191470 0.192111 0.192751 0.193391 0.194032 0.194672 0.195313 0.195953 0.196593 0.197234 0.197874 0.198514 0.199155 0.199795 0.200435 0.201076 0.201716 0.202357 0.202997 0.203637 0.204278 0.204918 0.205558 0.206199 0.206839 0.207480 0.208120 0.208760 0.209401 0.210041 0.210681 0.211322 0.211962 0.212602 0.213243 0.213883 0.214524 0.215164 0.215804 0.216445 0.217085 0.217725 0.218366 0.219006 0.219647 0.220287 0.220927 0.221568 0.222208 0.222848 0.223489 0.224129 0.224769 0.225410 0.226050 0.226691 0.227331 0.227971 0.228612 0.229252 0.229892 0.230533 0.231173 0.231814
